  Time                 , V(VG)                , V(VD)                , V(VMAX)              , I(Liman)             
  0.000000000000e+000  ,-1.201571480934e+000  ,4.983064837306e+000  ,2.028459812681e-001  ,4.980928471681e-001  
  5.000000000000e-011  ,-1.201571480997e+000  ,4.983064837504e+000  ,2.028459812681e-001  ,4.980928471681e-001  
  5.932923285291e-011  ,-1.201571481191e+000  ,4.983064832558e+000  ,2.028459812681e-001  ,4.980928471681e-001  
  7.798769855872e-011  ,-1.201571481205e+000  ,4.983064843086e+000  ,2.028459812681e-001  ,4.980928471681e-001  
  1.153046299703e-010  ,-1.201571481186e+000  ,4.983064832115e+000  ,2.028459812681e-001  ,4.980928471681e-001  
  1.899384927936e-010  ,-1.201571480820e+000  ,4.983064842257e+000  ,2.028459812681e-001  ,4.980928471681e-001  
  3.006727469154e-010  ,-1.201571478311e+000  ,4.983064833750e+000  ,2.028459812681e-001  ,4.980928471681e-001  
  4.603014362045e-010  ,-1.201571463520e+000  ,4.983064851916e+000  ,2.028459812681e-001  ,4.980928471681e-001  
  7.685692084022e-010  ,-1.201571034899e+000  ,4.983065074532e+000  ,2.028459812682e-001  ,4.980928471680e-001  
  1.363870598096e-009  ,-1.201556104809e+000  ,4.983072907109e+000  ,2.028459812743e-001  ,4.980928471528e-001  
  1.889788455982e-009  ,-1.201481649530e+000  ,4.983110575221e+000  ,2.028459813088e-001  ,4.980928470092e-001  
  2.399035639782e-009  ,-1.201310535827e+000  ,4.983195479136e+000  ,2.028459814182e-001  ,4.980928465840e-001  
  3.417530007381e-009  ,-1.200283722288e+000  ,4.983671694245e+000  ,2.028459823331e-001  ,4.980928415001e-001  
  4.771486766357e-009  ,-1.196790814002e+000  ,4.985122739112e+000  ,2.028459867286e-001  ,4.980928057733e-001  
  6.829709656257e-009  ,-1.185958555592e+000  ,4.988806780669e+000  ,2.028460063337e-001  ,4.980925558354e-001  
  9.485096581001e-009  ,-1.162004406124e+000  ,4.994685252892e+000  ,2.028460647652e-001  ,4.980914558176e-001  
  1.000000030000e-008  ,-1.156038344878e+000  ,4.995859471826e+000  ,2.028460865649e-001  ,4.980911018372e-001  
  1.050000876386e-008  ,-1.149544764552e+000  ,4.996977028477e+000  ,2.028461091789e-001  ,4.980906662319e-001  
  1.100795209605e-008  ,-1.142465469951e+000  ,4.998076578624e+000  ,2.028461335827e-001  ,4.980901543426e-001  
  1.202383876045e-008  ,-1.127403448096e+000  ,5.000155986354e+000  ,2.028461865314e-001  ,4.980889839776e-001  
  1.405561208923e-008  ,-1.092965468298e+000  ,5.003065268006e+000  ,2.028463058357e-001  ,4.980857012808e-001  
  1.683095336158e-008  ,-1.039878421349e+000  ,5.003687555780e+000  ,2.028464836974e-001  ,4.980791795411e-001  
  1.970091700752e-008  ,-9.785719142740e-001  ,5.001106745449e+000  ,2.028467926132e-001  ,4.980702188789e-001  
  2.360055089195e-008  ,-8.880357076023e-001  ,4.996084986784e+000  ,2.028474954169e-001  ,4.980561511287e-001  
  2.783173561294e-008  ,-7.849220831197e-001  ,4.990242340646e+000  ,2.028482084766e-001  ,4.980401653197e-001  
  3.283182025153e-008  ,-6.679343631876e-001  ,4.984562582084e+000  ,2.028515186862e-001  ,4.980241938047e-001  
  3.719488024909e-008  ,-5.764113410178e-001  ,4.980748491997e+000  ,2.028544353696e-001  ,4.980150311692e-001  
  4.178071260650e-008  ,-4.923343382018e-001  ,4.977894160295e+000  ,2.028638550623e-001  ,4.980107486591e-001  
  4.635313391883e-008  ,-4.220177530736e-001  ,4.976120476000e+000  ,2.028734326382e-001  ,4.980121728770e-001  
  5.109840870101e-008  ,-3.620033769375e-001  ,4.975262913982e+000  ,2.028964210895e-001  ,4.980186702601e-001  
  5.604112386901e-008  ,-3.114557647646e-001  ,4.975322009653e+000  ,2.029214418629e-001  ,4.980292066260e-001  
  6.104120850761e-008  ,-2.702528280230e-001  ,4.976131550659e+000  ,2.029715411777e-001  ,4.980414735249e-001  
  6.559723854263e-008  ,-2.400214033712e-001  ,4.977372173823e+000  ,2.030188341825e-001  ,4.980527231300e-001  
  7.059732318122e-008  ,-2.136989576382e-001  ,4.979121901897e+000  ,2.031048678118e-001  ,4.980640184628e-001  
  7.559740781982e-008  ,-1.928531248610e-001  ,4.980999160756e+000  ,2.031992010832e-001  ,4.980726809812e-001  
  8.059749245841e-008  ,-1.763088917276e-001  ,4.982762640188e+000  ,2.033317669310e-001  ,4.980780714714e-001  
  8.559757709701e-008  ,-1.635323111811e-001  ,4.984306622955e+000  ,2.034814975532e-001  ,4.980801636215e-001  
  9.059766173560e-008  ,-1.536782993354e-001  ,4.985485557232e+000  ,2.036693196364e-001  ,4.980791843279e-001  
  9.559774637420e-008  ,-1.460840764025e-001  ,4.986255428579e+000  ,2.038842798258e-001  ,4.980758862766e-001  
  1.005978310128e-007  ,-1.404189280077e-001  ,4.986627393171e+000  ,2.041333795578e-001  ,4.980707920187e-001  
  1.055979156514e-007  ,-1.361440647863e-001  ,4.986648234958e+000  ,2.044194924050e-001  ,4.980648236775e-001  
  1.105980002900e-007  ,-1.328219924626e-001  ,4.986414487472e+000  ,2.047329439886e-001  ,4.980588135085e-001  
  1.155980849286e-007  ,-1.302431533857e-001  ,4.985988265973e+000  ,2.050921638020e-001  ,4.980531344388e-001  
  1.205981695672e-007  ,-1.280825645529e-001  ,4.985475218114e+000  ,2.054703018018e-001  ,4.980483153235e-001  
  1.255982542058e-007  ,-1.261392415909e-001  ,4.984955870651e+000  ,2.059011353418e-001  ,4.980445728973e-001  
  1.305983388444e-007  ,-1.242706066486e-001  ,4.984492338748e+000  ,2.063420107318e-001  ,4.980419478861e-001  
  1.355984234830e-007  ,-1.223799583969e-001  ,4.984127748281e+000  ,2.068402528566e-001  ,4.980403059739e-001  
  1.405985081216e-007  ,-1.204403224553e-001  ,4.983872943515e+000  ,2.073457634611e-001  ,4.980395107666e-001  
  1.455985927602e-007  ,-1.184283538231e-001  ,4.983732418433e+000  ,2.078995238307e-001  ,4.980392512736e-001  
  1.505986773988e-007  ,-1.163583730228e-001  ,4.983691392966e+000  ,2.084645715728e-001  ,4.980393054075e-001  
  1.555987620373e-007  ,-1.142539072288e-001  ,4.983728107281e+000  ,2.090659829658e-001  ,4.980394593432e-001  
  1.605988466759e-007  ,-1.121430136688e-001  ,4.983816904704e+000  ,2.096823427470e-001  ,4.980395359847e-001  
  1.655989313145e-007  ,-1.100532519617e-001  ,4.983931671449e+000  ,2.103242355329e-001  ,4.980394091192e-001  
  1.705990159531e-007  ,-1.080028142972e-001  ,4.984054108788e+000  ,2.109824210876e-001  ,4.980390187308e-001  
  1.755991005917e-007  ,-1.060162704185e-001  ,4.984157395672e+000  ,2.116567939010e-001  ,4.980383104180e-001  
  1.805991852303e-007  ,-1.041015055679e-001  ,4.984228101310e+000  ,2.123462274638e-001  ,4.980373159203e-001  
  1.855992698689e-007  ,-1.022573154060e-001  ,4.984259889302e+000  ,2.130443566717e-001  ,4.980361001341e-001  
  1.905993545075e-007  ,-1.004752011273e-001  ,4.984252724180e+000  ,2.137535587326e-001  ,4.980347455925e-001  
  1.955994391461e-007  ,-9.874178550502e-002  ,4.984211460381e+000  ,2.144661374580e-001  ,4.980333382539e-001  
  2.005995237847e-007  ,-9.704134204375e-002  ,4.984144156862e+000  ,2.151829730022e-001  ,4.980319560548e-001  
  2.055996084233e-007  ,-9.535810870377e-002  ,4.984060361797e+000  ,2.159001271643e-001  ,4.980306610166e-001  
  2.105996930619e-007  ,-9.367811810509e-002  ,4.983969610118e+000  ,2.166122556329e-001  ,4.980294950808e-001  
  2.155997777005e-007  ,-9.198931169780e-002  ,4.983881256438e+000  ,2.173219124850e-001  ,4.980284793176e-001  
  2.205998623391e-007  ,-9.028721448712e-002  ,4.983799317639e+000  ,2.180189187544e-001  ,4.980276136262e-001  
  2.255999469777e-007  ,-8.856639210984e-002  ,4.983729299971e+000  ,2.187085645253e-001  ,4.980268883459e-001  
  2.306000316163e-007  ,-8.682641549023e-002  ,4.983673072336e+000  ,2.193806858568e-001  ,4.980262804761e-001  
  2.356001162549e-007  ,-8.506943960957e-002  ,4.983630481638e+000  ,2.200381118454e-001  ,4.980257617242e-001  
  2.406002008935e-007  ,-8.330012135756e-002  ,4.983599365862e+000  ,2.206759083996e-001  ,4.980252988766e-001  
  2.456002855321e-007  ,-8.152160197313e-002  ,4.983577884136e+000  ,2.212894285070e-001  ,4.980248751487e-001  
  2.506003701707e-007  ,-7.973935928604e-002  ,4.983562568860e+000  ,2.218839113322e-001  ,4.980244648788e-001  
  2.556004548093e-007  ,-7.795766379255e-002  ,4.983550295311e+000  ,2.224425408043e-001  ,4.980240538185e-001  
  2.606005394479e-007  ,-7.618015938753e-002  ,4.983538024161e+000  ,2.229852749090e-001  ,4.980236344844e-001  
  2.656006240864e-007  ,-7.440816089213e-002  ,4.983524462263e+000  ,2.234788778469e-001  ,4.980232065475e-001  
  2.706007087250e-007  ,-7.264320177101e-002  ,4.983507851366e+000  ,2.239620728829e-001  ,4.980227724826e-001  
  2.756007933636e-007  ,-7.088525449791e-002  ,4.983487618683e+000  ,2.243814818692e-001  ,4.980223391151e-001  
  2.806008780022e-007  ,-6.913324507456e-002  ,4.983463951915e+000  ,2.247915089073e-001  ,4.980219162983e-001  
  2.856009626408e-007  ,-6.738623717858e-002  ,4.983437268540e+000  ,2.251351873782e-001  ,4.980215096354e-001  
  2.906010472794e-007  ,-6.564218880013e-002  ,4.983408659573e+000  ,2.254614523925e-001  ,4.980211290804e-001  
  2.956011319180e-007  ,-6.390004113501e-002  ,4.983378806092e+000  ,2.257267822269e-001  ,4.980207782764e-001  
  3.006012165566e-007  ,-6.215808674453e-002  ,4.983348872282e+000  ,2.259627139304e-001  ,4.980204621368e-001  
  3.056013011952e-007  ,-6.041520828599e-002  ,4.983319729655e+000  ,2.261451416163e-001  ,4.980201821135e-001  
  3.106013858338e-007  ,-5.867063045141e-002  ,4.983292089271e+000  ,2.262854328305e-001  ,4.980199372912e-001  
  3.156014704724e-007  ,-5.692415940579e-002  ,4.983266191602e+000  ,2.263813323367e-001  ,4.980197261709e-001  
  3.206015551110e-007  ,-5.517567285275e-002  ,4.983242298032e+000  ,2.264219861361e-001  ,4.980195455085e-001  
  3.256016397496e-007  ,-5.342542171725e-002  ,4.983220354738e+000  ,2.264286823923e-001  ,4.980193917015e-001  
  3.306017243882e-007  ,-5.167382678280e-002  ,4.983200147134e+000  ,2.263670380468e-001  ,4.980192611429e-001  
  3.356018090268e-007  ,-4.992138222710e-002  ,4.983181362519e+000  ,2.262828171340e-001  ,4.980191505991e-001  
  3.406018936654e-007  ,-4.816857696103e-002  ,4.983163647384e+000  ,2.261175535416e-001  ,4.980190574590e-001  
  3.456019783040e-007  ,-4.641582987866e-002  ,4.983146660253e+000  ,2.259401594983e-001  ,4.980189798518e-001  
  3.506020629426e-007  ,-4.466347686065e-002  ,4.983130074967e+000  ,2.256727779168e-001  ,4.980189165830e-001  
  3.556021475812e-007  ,-4.291164401789e-002  ,4.983113721067e+000  ,2.253919525178e-001  ,4.980188673667e-001  
  3.606022322198e-007  ,-4.116037671985e-002  ,4.983097477212e+000  ,2.250341905384e-001  ,4.980188322233e-001  
  3.656023168584e-007  ,-3.940965145410e-002  ,4.983081292497e+000  ,2.246515818997e-001  ,4.980188113418e-001  
  3.706024014970e-007  ,-3.765936136996e-002  ,4.983065135050e+000  ,2.242054300415e-001  ,4.980188051918e-001  
  3.756024861356e-007  ,-3.590928731006e-002  ,4.983049080101e+000  ,2.237239088412e-001  ,4.980188143651e-001  
  3.806025707741e-007  ,-3.415928914002e-002  ,4.983033190639e+000  ,2.231922119854e-001  ,4.980188391150e-001  
  3.856026554127e-007  ,-3.240912870770e-002  ,4.983017582451e+000  ,2.226158110132e-001  ,4.980188797499e-001  
  3.906027400513e-007  ,-3.065859713837e-002  ,4.983002370975e+000  ,2.220022107026e-001  ,4.980189362133e-001  
  3.956028246899e-007  ,-2.890757829004e-002  ,4.982987622928e+000  ,2.213360433307e-001  ,4.980190082310e-001  
  4.006029093285e-007  ,-2.715597690742e-002  ,4.982973392222e+000  ,2.206449299857e-001  ,4.980190953654e-001  
  4.056029939671e-007  ,-2.540374339530e-002  ,4.982959705301e+000  ,2.198951099414e-001  ,4.980191971988e-001  
  4.106030786057e-007  ,-2.365081925342e-002  ,4.982946588083e+000  ,2.191315662629e-001  ,4.980193129468e-001  
  4.156031632443e-007  ,-2.189720939884e-002  ,4.982934024265e+000  ,2.183051095319e-001  ,4.980194418691e-001  
  4.206032478829e-007  ,-2.014293639088e-002  ,4.982921976952e+000  ,2.174702927852e-001  ,4.980195831238e-001  
  4.256033325215e-007  ,-1.838802063917e-002  ,4.982910417339e+000  ,2.165795651252e-001  ,4.980197362663e-001  
  4.306034171601e-007  ,-1.663249429324e-002  ,4.982899294263e+000  ,2.156776889563e-001  ,4.980199005703e-001  
  4.356035017987e-007  ,-1.487637846225e-002  ,4.982888564323e+000  ,2.147332578604e-001  ,4.980200755185e-001  
  4.406035864373e-007  ,-1.311968580134e-002  ,4.982878187848e+000  ,2.137730063689e-001  ,4.980202606813e-001  
  4.456036710759e-007  ,-1.136241000569e-002  ,4.982868133081e+000  ,2.127820378244e-001  ,4.980204556598e-001  
  4.506037557145e-007  ,-9.604536161826e-003  ,4.982858383390e+000  ,2.117726323351e-001  ,4.980206602061e-001  
  4.556038403531e-007  ,-7.846040700157e-003  ,4.982848927766e+000  ,2.107426277439e-001  ,4.980208740774e-001  
  4.606039249917e-007  ,-6.086901128815e-003  ,4.982839762172e+000  ,2.096937122787e-001  ,4.980210970985e-001  
  4.656040096303e-007  ,-4.327077013765e-003  ,4.982830883290e+000  ,2.086324325451e-001  ,4.980213289835e-001  
  4.706040942689e-007  ,-2.566529810522e-003  ,4.982822296485e+000  ,2.075539639196e-001  ,4.980215695044e-001  
  4.756041789075e-007  ,-8.052262114663e-004  ,4.982814006167e+000  ,2.064693619503e-001  ,4.980218184171e-001  
  4.806042635461e-007  ,9.568658116039e-004  ,4.982806018686e+000  ,2.053714880997e-001  ,4.980220754573e-001  
  4.856043481847e-007  ,2.719771961767e-003  ,4.982798337281e+000  ,2.042716076996e-001  ,4.980223403408e-001  
  4.906044328233e-007  ,4.483511733745e-003  ,4.982790961758e+000  ,2.031645705361e-001  ,4.980226127150e-001  
  4.956045174618e-007  ,6.248093699465e-003  ,4.982783890695e+000  ,2.020576521208e-001  ,4.980228923718e-001  
  5.006046021004e-007  ,8.013529140555e-003  ,4.982777118564e+000  ,2.009515005771e-001  ,4.980231788923e-001  
  5.056046867390e-007  ,9.779818807473e-003  ,4.982770637996e+000  ,1.998477039088e-001  ,4.980234719993e-001  
  5.106047713776e-007  ,1.154696219900e-002  ,4.982764440728e+000  ,1.987503906381e-001  ,4.980237713991e-001  
  5.156048560162e-007  ,1.331495756193e-002  ,4.982758519779e+000  ,1.976597044880e-001  ,4.980240768719e-001  
  5.206049406548e-007  ,1.508380037383e-002  ,4.982752863159e+000  ,1.965790090183e-001  ,4.980243880596e-001  
  5.256050252934e-007  ,1.685348556396e-002  ,4.982747461134e+000  ,1.955111444315e-001  ,4.980247046931e-001  
  5.306051099320e-007  ,1.862400630902e-002  ,4.982742303197e+000  ,1.944546056540e-001  ,4.980250264780e-001  
  5.356051945706e-007  ,2.039535894787e-002  ,4.982737384260e+000  ,1.934189040079e-001  ,4.980253532544e-001  
  5.406052792092e-007  ,2.216753649370e-002  ,4.982732695800e+000  ,1.923937697155e-001  ,4.980256847505e-001  
  5.456053638478e-007  ,2.394053302602e-002  ,4.982728232018e+000  ,1.913991148075e-001  ,4.980260207451e-001  
  5.506054484864e-007  ,2.571434127621e-002  ,4.982723987490e+000  ,1.904122777437e-001  ,4.980263610242e-001  
  5.556055331250e-007  ,2.748895451205e-002  ,4.982719958689e+000  ,1.894670110960e-001  ,4.980267053787e-001  
  5.606056177636e-007  ,2.926436269892e-002  ,4.982716140617e+000  ,1.885280381207e-001  ,4.980270536030e-001  
  5.656057024022e-007  ,3.104055584857e-002  ,4.982712530452e+000  ,1.876368149819e-001  ,4.980274054940e-001  
  5.706057870408e-007  ,3.281752153717e-002  ,4.982709123748e+000  ,1.867564701565e-001  ,4.980277608507e-001  
  5.756058716794e-007  ,3.459524264792e-002  ,4.982705916394e+000  ,1.859216313511e-001  ,4.980281194418e-001  
  5.806059563180e-007  ,3.637370416224e-002  ,4.982702904414e+000  ,1.851067701543e-001  ,4.980284810935e-001  
  5.856060409566e-007  ,3.815288898314e-002  ,4.982700083782e+000  ,1.843333466184e-001  ,4.980288456205e-001  
  5.906061255952e-007  ,3.993278280387e-002  ,4.982697451047e+000  ,1.835900784218e-001  ,4.980292128820e-001  
  5.956062102338e-007  ,4.171336052779e-002  ,4.982695000500e+000  ,1.828825475776e-001  ,4.980295826456e-001  
  6.006062948724e-007  ,4.349459994896e-002  ,4.982692727219e+000  ,1.822161945837e-001  ,4.980299547305e-001  
  6.056063795109e-007  ,4.527647373846e-002  ,4.982690625712e+000  ,1.815784568259e-001  ,4.980303289325e-001  
  6.106064641495e-007  ,4.705896562924e-002  ,4.982688692516e+000  ,1.809935231203e-001  ,4.980307051384e-001  
  6.156065487881e-007  ,4.884204623736e-002  ,4.982686922228e+000  ,1.804288852448e-001  ,4.980310831536e-001  
  6.206066334267e-007  ,5.062568983275e-002  ,4.982685310229e+000  ,1.799290336991e-001  ,4.980314628181e-001  
  6.256067180653e-007  ,5.240986987392e-002  ,4.982683852458e+000  ,1.794401949605e-001  ,4.980318439767e-001  
  6.306068027039e-007  ,5.419455874472e-002  ,4.982682543897e+000  ,1.790282292776e-001  ,4.980322264787e-001  
  6.356068873425e-007  ,5.597972988897e-002  ,4.982681381726e+000  ,1.786267463137e-001  ,4.980326101781e-001  
  6.406069719811e-007  ,5.776535249439e-002  ,4.982680360307e+000  ,1.782951319652e-001  ,4.980329949328e-001  
  6.456070566197e-007  ,5.955140006997e-002  ,4.982679478040e+000  ,1.779837080876e-001  ,4.980333806047e-001  
  6.506071412583e-007  ,6.133783632780e-002  ,4.982678728905e+000  ,1.777322852510e-001  ,4.980337670374e-001  
  6.556072258969e-007  ,6.312463504315e-002  ,4.982678110509e+000  ,1.775117590374e-001  ,4.980341541152e-001  
  6.606073105355e-007  ,6.491177479283e-002  ,4.982677620457e+000  ,1.773407680913e-001  ,4.980345417457e-001  
  6.656073951741e-007  ,6.669921809841e-002  ,4.982677254317e+000  ,1.772111353072e-001  ,4.980349297752e-001  
  6.706074798127e-007  ,6.848693387067e-002  ,4.982677008512e+000  ,1.771202198247e-001  ,4.980353180822e-001  
  6.756075644513e-007  ,7.027489200237e-002  ,4.982676880043e+000  ,1.770806543425e-001  ,4.980357065487e-001  
  6.806076490899e-007  ,7.206306040177e-002  ,4.982676865018e+000  ,1.770688794071e-001  ,4.980360950599e-001  
  6.856077337285e-007  ,7.385140843065e-002  ,4.982676960634e+000  ,1.771177640689e-001  ,4.980364835042e-001  
  6.906078183671e-007  ,7.563989995819e-002  ,4.982677162783e+000  ,1.771836382394e-001  ,4.980368717562e-001  
  6.956079030057e-007  ,7.742851420374e-002  ,4.982677469346e+000  ,1.773186031786e-001  ,4.980372597460e-001  
  7.006079876443e-007  ,7.921721444419e-002  ,4.982677876332e+000  ,1.774634620064e-001  ,4.980376473541e-001  
  7.056080722829e-007  ,8.100597070041e-002  ,4.982678381257e+000  ,1.776780671983e-001  ,4.980380344821e-001  
  7.106081569215e-007  ,8.279474715579e-002  ,4.982678980162e+000  ,1.779051701758e-001  ,4.980384210191e-001  
  7.156082415601e-007  ,8.458351709006e-002  ,4.982679670462e+000  ,1.781898817019e-001  ,4.980388068841e-001  
  7.206083261986e-007  ,8.637225855335e-002  ,4.982680449963e+000  ,1.784953037977e-001  ,4.980391920123e-001  
  7.256084108372e-007  ,8.816093608427e-002  ,4.982681315652e+000  ,1.788466892274e-001  ,4.980395762966e-001  
  7.306084954758e-007  ,8.994952100229e-002  ,4.982682264511e+000  ,1.792259124534e-001  ,4.980399596533e-001  
  7.356085801144e-007  ,9.173798493343e-002  ,4.982683293878e+000  ,1.796401398964e-001  ,4.980403420013e-001  
  7.406086647530e-007  ,9.352630084695e-002  ,4.982684400981e+000  ,1.800881118111e-001  ,4.980407232620e-001  
  7.456087493916e-007  ,9.531443777234e-002  ,4.982685583249e+000  ,1.805609909687e-001  ,4.980411033475e-001  
  7.506088340302e-007  ,9.710237812989e-002  ,4.982686838543e+000  ,1.810721860762e-001  ,4.980414822089e-001  
  7.556089186688e-007  ,9.889009257680e-002  ,4.982688164181e+000  ,1.815992073354e-001  ,4.980418597629e-001  
  7.606090033074e-007  ,1.006775527239e-001  ,4.982689557342e+000  ,1.821676908481e-001  ,4.980422359299e-001  
  7.656090879460e-007  ,1.024647375598e-001  ,4.982691015872e+000  ,1.827440691031e-001  ,4.980426106518e-001  
  7.706091725846e-007  ,1.042516258304e-001  ,4.982692537698e+000  ,1.833635639402e-001  ,4.980429838675e-001  
  7.756092572232e-007  ,1.060381954537e-001  ,4.982694120230e+000  ,1.839883820101e-001  ,4.980433555164e-001  
  7.806093418618e-007  ,1.078244312825e-001  ,4.982695762197e+000  ,1.846482339771e-001  ,4.980437255539e-001  
